# dimensionless total [l(l+1)/2pi] C_l's
# for l=2 to 3000, i.e. number of multipoles equal to 2999
#
# -> if you prefer output in CAMB/HealPix/LensPix units/order, set 'format' to 'camb' in input file
# -> if you don't want to see such a header, set 'headers' to 'no' in input file
# -> for CMB lensing (phi), these are C_l^phi-phi for the lensing potential.
#    Remember the conversion factors:
#    C_l^dd (deflection) = l(l+1) C_l^phi-phi
#    C_l^gg (shear/convergence) = 1/4 (l(l+1))^2 C_l^phi-phi
#
# 1:l     2:TT                     3:EE                     4:TE                     5:BB                     6:phiphi                 7:TPhi                   8:Ephi               
    2       1.367189958596e-10       4.154497816308e-15       3.520399420158e-13       0.000000000000e+00       8.015682511064e-09       4.409191755292e-10      -1.840611825910e-12 
    3       1.295423704292e-10       5.345175026379e-15       3.955800780442e-13       0.000000000000e+00       4.980392117500e-09       3.125272261309e-10      -1.395185166994e-12 
    4       1.227403334797e-10       4.639994326580e-15       3.697072785082e-13       0.000000000000e+00       3.461719277831e-09       2.361413293354e-10      -9.155128895763e-13 
    5       1.176670476311e-10       3.106461865522e-15       3.147442887413e-13       0.000000000000e+00       2.579776007375e-09       1.861532703379e-10      -5.109142879957e-13 
    6       1.142105399597e-10       1.741070846934e-15       2.533915580560e-13       0.000000000000e+00       2.010664083352e-09       1.511378170530e-10      -2.117477163450e-13 
    7       1.119814900405e-10       9.402471852907e-16       1.988179712552e-13       0.000000000000e+00       1.617667604331e-09       1.254220426235e-10      -1.991495025475e-14 
    8       1.107211025205e-10       6.052116542270e-16       1.567640609843e-13       0.000000000000e+00       1.333683532851e-09       1.059769902863e-10       7.898017975001e-14 
    9       1.101986754595e-10       4.858197936910e-16       1.285001357494e-13       0.000000000000e+00       1.121259160460e-09       9.099081376675e-11       1.077202600579e-13 
   10       1.101609804053e-10       4.140527548409e-16       1.127256686728e-13       0.000000000000e+00       9.574817130496e-10       7.917848311013e-11       9.174815629275e-14 
   11       1.105720440639e-10       3.460975961370e-16       1.067758973313e-13       0.000000000000e+00       8.064471026295e-10       6.998268842151e-11       5.498587410086e-14 
   12       1.112689114306e-10       2.978694152600e-16       1.076047122991e-13       0.000000000000e+00       7.037520630371e-10       6.174316164436e-11       1.501930298226e-14 
   13       1.121914568630e-10       2.818348720482e-16       1.125748930176e-13       0.000000000000e+00       6.195298171017e-10       5.505587455398e-11      -1.592840854200e-14 
   14       1.133425410203e-10       2.907550425606e-16       1.196516267554e-13       0.000000000000e+00       5.495249184316e-10       4.932509173257e-11      -3.326592987268e-14 
   15       1.146652657934e-10       3.124172373290e-16       1.275297999356e-13       0.000000000000e+00       4.906416879393e-10       4.452568601467e-11      -3.707352915369e-14 
   16       1.160988256241e-10       3.433955651731e-16       1.355776858637e-13       0.000000000000e+00       4.406192704118e-10       4.043100824159e-11      -3.105105181493e-14 
   17       1.176746566788e-10       3.887353924731e-16       1.435832864073e-13       0.000000000000e+00       3.977438723452e-10       3.685621719925e-11      -2.030580601168e-14 
   18       1.193034260059e-10       4.541508725511e-16       1.517069988304e-13       0.000000000000e+00       3.605601268543e-10       3.369576457427e-11      -9.738221086152e-15 
   19       1.210177944662e-10       5.401967104867e-16       1.602156173934e-13       0.000000000000e+00       3.284731240533e-10       3.088449925771e-11      -2.035050189273e-15 
   20       1.228450264839e-10       6.449972223198e-16       1.693475374167e-13       0.000000000000e+00       3.002414552783e-10       2.830926591125e-11       9.523153980453e-16 
   21       1.247574570289e-10       7.676775011403e-16       1.790346222362e-13       0.000000000000e+00       2.754141175792e-10       2.599654743688e-11      -3.401091055426e-16 
   22       1.266847771182e-10       9.074390527295e-16       1.890389361258e-13       0.000000000000e+00       2.533878157459e-10       2.399105490604e-11      -4.294111570734e-15 
   23       1.286589675171e-10       1.064650870205e-15       1.990857661851e-13       0.000000000000e+00       2.338541891901e-10       2.232076182458e-11      -9.198308022768e-15 
   24       1.307206415565e-10       1.239823098189e-15       2.088295819358e-13       0.000000000000e+00       2.163567858538e-10       2.096300100849e-11      -1.318048127432e-14 
   25       1.328635080356e-10       1.432828594174e-15       2.179151040723e-13       0.000000000000e+00       2.006861758955e-10       1.978892634519e-11      -1.534956111922e-14 
   26       1.350488445985e-10       1.643580921531e-15       2.259999300080e-13       0.000000000000e+00       1.865554643265e-10       1.862550096882e-11      -1.528584735651e-14 
   27       1.372554814360e-10       1.874008120988e-15       2.330219823348e-13       0.000000000000e+00       1.737938918051e-10       1.743599403167e-11      -1.354031251775e-14 
   28       1.394608120604e-10       2.126655763446e-15       2.390269272838e-13       0.000000000000e+00       1.621807134867e-10       1.623038356518e-11      -1.105998043536e-14 
   29       1.416784146678e-10       2.402972346897e-15       2.440634979998e-13       0.000000000000e+00       1.516559026635e-10       1.506646502640e-11      -8.485279421136e-15 
   30       1.439243889023e-10       2.704065055702e-15       2.482096126586e-13       0.000000000000e+00       1.421055756076e-10       1.402405679731e-11      -6.480461344875e-15 
   31       1.462071546180e-10       3.030977697263e-15       2.515492569670e-13       0.000000000000e+00       1.333336625548e-10       1.317326182824e-11      -5.674110099373e-15 
   32       1.485427429523e-10       3.384569606962e-15       2.540495052435e-13       0.000000000000e+00       1.252935558485e-10       1.249996938702e-11      -5.953431869357e-15 
   33       1.509429294408e-10       3.765577801892e-15       2.556372662115e-13       0.000000000000e+00       1.179268105372e-10       1.194999010587e-11      -6.895038682785e-15 
   34       1.534078805709e-10       4.174702214737e-15       2.562235152966e-13       0.000000000000e+00       1.111285314682e-10       1.145781808046e-11      -8.006761322120e-15 
   35       1.559187093886e-10       4.612823803340e-15       2.556804619440e-13       0.000000000000e+00       1.048630934539e-10       1.098651992892e-11      -8.973034743665e-15 
   36       1.584399528658e-10       5.080855829088e-15       2.538539795675e-13       0.000000000000e+00       9.907957822164e-11       1.049995500633e-11      -9.485611497142e-15 
   37       1.609344110827e-10       5.579664856810e-15       2.506007646074e-13       0.000000000000e+00       9.370195718374e-11       9.965334831757e-12      -9.279542728522e-15 
   38       1.634122766701e-10       6.110005287868e-15       2.459006491206e-13       0.000000000000e+00       8.871588261096e-11       9.400792491584e-12      -8.492046324147e-15 
   39       1.658971524395e-10       6.672557206268e-15       2.397817955906e-13       0.000000000000e+00       8.410511570444e-11       8.843483094422e-12      -7.425310821887e-15 
   40       1.684126215180e-10       7.267938676764e-15       2.322921636074e-13       0.000000000000e+00       7.982513756937e-11       8.337335896297e-12      -6.456698501780e-15 
   41       1.709781049322e-10       7.896731006307e-15       2.234787708690e-13       0.000000000000e+00       7.581860195221e-11       7.921389084405e-12      -5.941745523817e-15 
   42       1.735953377831e-10       8.559574247767e-15       2.133144838307e-13       0.000000000000e+00       7.207366529551e-11       7.589320787873e-12      -5.873453829450e-15 
   43       1.762571228490e-10       9.257095903871e-15       2.017494063188e-13       0.000000000000e+00       6.858049878929e-11       7.317378552392e-12      -6.120301289310e-15 
   44       1.789503951696e-10       9.989882227028e-15       1.887304493892e-13       0.000000000000e+00       6.531380182789e-11       7.074841803825e-12      -6.516463765950e-15 
   45       1.816607975927e-10       1.075847911181e-14       1.742059808695e-13       0.000000000000e+00       6.224178394085e-11       6.831245107055e-12      -6.897480917285e-15 
   46       1.843891909735e-10       1.156339998391e-14       1.581421735493e-13       0.000000000000e+00       5.935921483813e-11       6.581686619876e-12      -7.224988603226e-15 
   47       1.871392480509e-10       1.240511673740e-14       1.405110088625e-13       0.000000000000e+00       5.666216011928e-11       6.328318151842e-12      -7.495652922724e-15 
   48       1.899126251938e-10       1.328405511438e-14       1.212857085861e-13       0.000000000000e+00       5.413799895186e-11       6.073318357615e-12      -7.706656794602e-15 
   49       1.927087650648e-10       1.420059279941e-14       1.004407058839e-13       0.000000000000e+00       5.176478073100e-11       5.818883401405e-12      -7.855746426248e-15 
   50       1.955262481576e-10       1.515503566675e-14       7.794986883383e-14       0.000000000000e+00       4.951780041568e-11       5.567525341538e-12      -7.945588751007e-15 
   51       1.983677377192e-10       1.614754334209e-14       5.378066971804e-14       0.000000000000e+00       4.739292119487e-11       5.323084425711e-12      -7.998130312944e-15 
   52       2.012360359643e-10       1.717818014151e-14       2.789838299892e-14       0.000000000000e+00       4.538847044210e-11       5.089975434752e-12      -8.044216263025e-15 
   53       2.041325310209e-10       1.824693228868e-14       2.675859530498e-16       0.000000000000e+00       4.349827790987e-11       4.872909001445e-12      -8.119863462272e-15 
   54       2.070570724824e-10       1.935370498122e-14      -2.914795252158e-14       0.000000000000e+00       4.171137209163e-11       4.676896755913e-12      -8.266509819570e-15 
   55       2.100087945655e-10       2.049838520632e-14      -6.037943334478e-14       0.000000000000e+00       4.001533188148e-11       4.505853349006e-12      -8.518575184670e-15 
   56       2.129891101426e-10       2.168105518202e-14      -9.343355834894e-14       0.000000000000e+00       3.840801218846e-11       4.357984050730e-12      -8.861954167611e-15 
   57       2.159992425117e-10       2.290182680079e-14      -1.283073574530e-13       0.000000000000e+00       3.688819937079e-11       4.229260344796e-12      -9.265648779320e-15 
   58       2.190392573352e-10       2.416078016194e-14      -1.649935966813e-13       0.000000000000e+00       3.545205343358e-11       4.114674217035e-12      -9.693313781004e-15 
   59       2.221079751114e-10       2.545796319965e-14      -2.034806575478e-13       0.000000000000e+00       3.409294680500e-11       4.008188633700e-12      -1.010301166697e-14 
   60       2.252028836476e-10       2.679339131090e-14      -2.437524164398e-13       0.000000000000e+00       3.280130311255e-11       3.902688019756e-12      -1.044696764743e-14 
   61       2.283213469536e-10       2.816695844051e-14      -2.857913848621e-13       0.000000000000e+00       3.156722708837e-11       3.791724267631e-12      -1.068259560678e-14 
   62       2.314647470239e-10       2.957814785547e-14      -3.295892267059e-13       0.000000000000e+00       3.038944883234e-11       3.675324765691e-12      -1.080902233412e-14 
   63       2.346351206347e-10       3.102625549520e-14      -3.751383984024e-13       0.000000000000e+00       2.926811022710e-11       3.555406099950e-12      -1.083836407105e-14 
   64       2.378338994831e-10       3.251046966762e-14      -4.224290795654e-13       0.000000000000e+00       2.820207974239e-11       3.434100863896e-12      -1.078528933798e-14 
   65       2.410618637941e-10       3.402986786771e-14      -4.714491558403e-13       0.000000000000e+00       2.718887977163e-11       3.313765107609e-12      -1.066713153648e-14 
   66       2.443190959274e-10       3.558341359611e-14      -5.221842017530e-13       0.000000000000e+00       2.622461396862e-11       3.196985786883e-12      -1.050400155157e-14 
   67       2.476049339841e-10       3.716995317777e-14      -5.746174635584e-13       0.000000000000e+00       2.530389458410e-11       3.086588212345e-12      -1.031890035414e-14 
   68       2.509186017409e-10       3.878834184807e-14      -6.287309463787e-13       0.000000000000e+00       2.442128343389e-11       2.985013727568e-12      -1.013318139351e-14 
   69       2.542613503759e-10       4.043785879010e-14      -6.845089697532e-13       0.000000000000e+00       2.357611627837e-11       2.892289663769e-12      -9.951618403580e-15 
   70       2.576346693640e-10       4.211787086605e-14      -7.419353050354e-13       0.000000000000e+00       2.276852994510e-11       2.807659536464e-12      -9.774500323100e-15 
   71       2.610396199727e-10       4.382771091303e-14      -8.009921457412e-13       0.000000000000e+00       2.199800184742e-11       2.730167918897e-12      -9.602007581376e-15 
   72       2.644768061659e-10       4.556667786769e-14      -8.616601186402e-13       0.000000000000e+00       2.126331603281e-11       2.658651784478e-12      -9.434205769410e-15 
   73       2.679463455083e-10       4.733403689093e-14      -9.239182948472e-13       0.000000000000e+00       2.056252923140e-11       2.591731849235e-12      -9.271039311055e-15 
   74       2.714478400698e-10       4.912901949258e-14      -9.877442009138e-13       0.000000000000e+00       1.989293690434e-11       2.527803914254e-12      -9.112325134159e-15 
   75       2.749803473289e-10       5.095082365606e-14      -1.053113829920e-12       0.000000000000e+00       1.925103929225e-11       2.465030208122e-12      -8.957746341718e-15 
   76       2.785428955069e-10       5.279854983260e-14      -1.120000267430e-12       0.000000000000e+00       1.863340316524e-11       2.401770715141e-12      -8.807128399416e-15 
   77       2.821362023763e-10       5.467099517346e-14      -1.188369255576e-12       0.000000000000e+00       1.803950354463e-11       2.337987103659e-12      -8.661339833081e-15 
   78       2.857612184804e-10       5.656682182713e-14      -1.258182836459e-12       0.000000000000e+00       1.746934090734e-11       2.274080271245e-12      -8.521545042604e-15 
   79       2.894185928673e-10       5.848461656992e-14      -1.329400648483e-12       0.000000000000e+00       1.692257612364e-11       2.210473429669e-12      -8.388935829540e-15 
   80       2.931086551590e-10       6.042288961554e-14      -1.401979909052e-12       0.000000000000e+00       1.639851487269e-11       2.147612469603e-12      -8.264730861494e-15 
   81       2.968313976185e-10       6.238007342479e-14      -1.475875397253e-12       0.000000000000e+00       1.589609205804e-11       2.085966325336e-12      -8.150175136489e-15 
   82       3.005864572186e-10       6.435452151514e-14      -1.551039436545e-12       0.000000000000e+00       1.541385622317e-11       2.026027339479e-12      -8.046539447351e-15 
   83       3.043730977097e-10       6.634450727037e-14      -1.627421877446e-12       0.000000000000e+00       1.494995396701e-11       1.968311627676e-12      -7.955119846078e-15 
   84       3.081905547309e-10       6.834829350847e-14      -1.704971795421e-12       0.000000000000e+00       1.450257833865e-11       1.913271661071e-12      -7.876805314030e-15 
   85       3.120391761572e-10       7.036435704381e-14      -1.783642945858e-12       0.000000000000e+00       1.407143356750e-11       1.861016563870e-12      -7.810699597202e-15 
   86       3.159194387996e-10       7.239119934319e-14      -1.863389185874e-12       0.000000000000e+00       1.365648570999e-11       1.811545900124e-12      -7.755268856120e-15 
   87       3.198315905142e-10       7.442727907646e-14      -1.944162850868e-12       0.000000000000e+00       1.325751258822e-11       1.764832239008e-12      -7.708745468590e-15 
   88       3.237756383721e-10       7.647101211533e-14      -2.025914766036e-12       0.000000000000e+00       1.287409600341e-11       1.720820044193e-12      -7.669120237029e-15 
   89       3.277513368291e-10       7.852077153224e-14      -2.108594257889e-12       0.000000000000e+00       1.250561394942e-11       1.679424563228e-12      -7.634134595799e-15 
   90       3.317581758952e-10       8.057488759919e-14      -2.192149165763e-12       0.000000000000e+00       1.215123282623e-11       1.640530716912e-12      -7.601272818538e-15 
   91       3.357953693046e-10       8.263164778655e-14      -2.276525853337e-12       0.000000000000e+00       1.180989965339e-11       1.603991988676e-12      -7.567754225489e-15 
   92       3.398618426849e-10       8.468929676199e-14      -2.361669220148e-12       0.000000000000e+00       1.148033428359e-11       1.569629313955e-12      -7.530525390833e-15 
   93       3.439565786401e-10       8.674605881171e-14      -2.447522831304e-12       0.000000000000e+00       1.116133165713e-11       1.537258265588e-12      -7.486937351921e-15 
   94       3.480797370641e-10       8.880020896426e-14      -2.534029303936e-12       0.000000000000e+00       1.085273747902e-11       1.506777699393e-12      -7.436910672083e-15 
   95       3.522316822331e-10       9.085001261143e-14      -2.621130000430e-12       0.000000000000e+00       1.055460557012e-11       1.478092449494e-12      -7.381083110708e-15 
   96       3.564126340680e-10       9.289370434142e-14      -2.708764928368e-12       0.000000000000e+00       1.026689741779e-11       1.451085507710e-12      -7.320155223887e-15 
   97       3.606226612031e-10       9.492948824547e-14      -2.796872753661e-12       0.000000000000e+00       9.989478645199e-12       1.425617301344e-12      -7.254891974657e-15 
   98       3.648616740551e-10       9.695553822450e-14      -2.885390813695e-12       0.000000000000e+00       9.722115480762e-12       1.401524970973e-12      -7.186124343240e-15 
   99       3.691294178921e-10       9.896999829575e-14      -2.974255130461e-12       0.000000000000e+00       9.464471227466e-12       1.378621648242e-12      -7.114750937278e-15 
  100       3.734254659023e-10       1.009709828994e-13      -3.063400423695e-12       0.000000000000e+00       9.216102732260e-12       1.356695733656e-12      -7.041739602082e-15 
  101       3.777492122633e-10       1.029565772052e-13      -3.152760124017e-12       0.000000000000e+00       8.976456855425e-12       1.335510174369e-12      -6.968129030866e-15 
  102       3.820998652111e-10       1.049248374191e-13      -3.242266386065e-12       0.000000000000e+00       8.744866939941e-12       1.314801741980e-12      -6.895030374990e-15 
  103       3.864764401086e-10       1.068737910900e-13      -3.331850101636e-12       0.000000000000e+00       8.520549280859e-12       1.294280310320e-12      -6.823628854199e-15 
  104       3.908779733960e-10       1.088014864519e-13      -3.421441688570e-12       0.000000000000e+00       8.302779977069e-12       1.273690818340e-12      -6.754940910945e-15 
  105       3.953042122859e-10       1.107061473822e-13      -3.510973550469e-12       0.000000000000e+00       8.091460298982e-12       1.253010247039e-12      -6.689044844275e-15 
  106       3.997550057476e-10       1.125860400450e-13      -3.600377975289e-12       0.000000000000e+00       7.886621467215e-12       1.232276028719e-12      -6.625748763913e-15 
  107       4.042300874973e-10       1.144394265603e-13      -3.689586410666e-12       0.000000000000e+00       7.688249560468e-12       1.211525705046e-12      -6.564824702267e-15 
