# Matter power spectrum P(k) at redshift z=0
# for k=1.05086e-05 to 1.61839 h/Mpc,
# number of wavenumbers equal to 599
#    1:k (h/Mpc)              2:P (Mpc/h)^3        
       1.050861780603e-05       4.733904005014e+01 
       2.379155153030e-05       1.042422201261e+02 
       3.712339274979e-05       1.602137857881e+02 
       5.054228900412e-05       2.158465423873e+02 
       6.408705131807e-05       2.714832549645e+02 
       7.779752211459e-05       3.273855639658e+02 
       9.171495550260e-05       3.837798691143e+02 
       1.058824152951e-04       4.408777756334e+02 
       1.203451961515e-04       4.988851082999e+02 
       1.351512732735e-04       5.580088250157e+02 
       1.503517860753e-04       6.184608190464e+02 
       1.660015611415e-04       6.804615658893e+02 
       1.821596795072e-04       7.442432793856e+02 
       1.988900927300e-04       8.100530134963e+02 
       2.162622912408e-04       8.781547475435e+02 
       2.343520268636e-04       9.488326732949e+02 
       2.532420889318e-04       1.022393773450e+03 
       2.730231297894e-04       1.099171228921e+03 
       2.937945302398e-04       1.179526584044e+03 
       3.156652882336e-04       1.263851633561e+03 
       3.387549042292e-04       1.352573716000e+03 
       3.631942236878e-04       1.446154559813e+03 
       3.891261806407e-04       1.545094007224e+03 
       4.167063660180e-04       1.649929668673e+03 
       4.461033208580e-04       1.761237395418e+03 
       4.774984289434e-04       1.879627101984e+03 
       5.110852586527e-04       2.005739778273e+03 
       5.470681846284e-04       2.140237941942e+03 
       5.856601134355e-04       2.283796945224e+03 
       6.270791531045e-04       2.437088052461e+03 
       6.715441149795e-04       2.600758523973e+03 
       7.192688269133e-04       2.775408311371e+03 
       7.704553733949e-04       2.961567023210e+03 
       8.252865536863e-04       3.159660772370e+03 
       8.839180411440e-04       3.369984982762e+03 
       9.464708969760e-04       3.592677058562e+03 
       1.013025190832e-03       3.827701373467e+03 
       1.083615463564e-03       4.074834816796e+03 
       1.158228611146e-03       4.333659703902e+03 
       1.236804487422e-03       4.603582050194e+03 
       1.319239171106e-03       4.883846739150e+03 
       1.405390498521e-03       5.173568516273e+03 
       1.495085205484e-03       5.471766764674e+03 
       1.588126898717e-03       5.777386206456e+03 
       1.684304096883e-03       6.089363310117e+03 
       1.783397713543e-03       6.406612130537e+03 
       1.885187548473e-03       6.728088753724e+03 
       1.989457558258e-03       7.052797716244e+03 
       2.095999853791e-03       7.379799713925e+03 
       2.204617501597e-03       7.708218123948e+03 
       2.315126284390e-03       8.037262541704e+03 
       2.427355611152e-03       8.366218136272e+03 
       2.541148770106e-03       8.694445292418e+03 
       2.656362701226e-03       9.021360115002e+03 
       2.772867438324e-03       9.346463491642e+03 
       2.890545341185e-03       9.669327449400e+03 
       3.009290210099e-03       9.989544701984e+03 
       3.129006350558e-03       1.030679051955e+04 
       3.249607635790e-03       1.062076923966e+04 
       3.371016598959e-03       1.093124835636e+04 
       3.493163575003e-03       1.123799351873e+04 
       3.615985903342e-03       1.154083105413e+04 
       3.739427196576e-03       1.183961992415e+04 
       3.863436676098e-03       1.213423129388e+04 
       3.987968572829e-03       1.242454323172e+04 
       4.112981589576e-03       1.271049588098e+04 
       4.238438420620e-03       1.299200154859e+04 
       4.364305323669e-03       1.326901352740e+04 
       4.490551739268e-03       1.354149842872e+04 
       4.617149952860e-03       1.380942477756e+04 
       4.744074794968e-03       1.407276926128e+04 
       4.871303375296e-03       1.433153174321e+04 
       4.998814846928e-03       1.458570417215e+04 
       5.126590197154e-03       1.483528498760e+04 
       5.254612061828e-03       1.508030646578e+04 
       5.382864560502e-03       1.532076776793e+04 
       5.511333149884e-03       1.555669818317e+04 
       5.640004493456e-03       1.578811504694e+04 
       5.768866345363e-03       1.601504910769e+04 
       5.897907446870e-03       1.623753823499e+04 
       6.027117433939e-03       1.645559851279e+04 
       6.156486754619e-03       1.666927586796e+04 
       6.286006595112e-03       1.687861129011e+04 
       6.415668813528e-03       1.708364120243e+04 
       6.545465880440e-03       1.728440140478e+04 
       6.675390825478e-03       1.748094252180e+04 
       6.805437189288e-03       1.767330187655e+04 
       6.935598980252e-03       1.786152042232e+04 
       7.065870635451e-03       1.804563760929e+04 
       7.196246985412e-03       1.822569755506e+04 
       7.326723222227e-03       1.840178797644e+04 
       7.457294870688e-03       1.857388789118e+04 
       7.587957762115e-03       1.874208272378e+04 
       7.718708010602e-03       1.890640376776e+04 
       7.849541991438e-03       1.906689618434e+04 
       7.980456321458e-03       1.922362363880e+04 
       8.111447841157e-03       1.937661079715e+04 
       8.242513598373e-03       1.952590025678e+04 
       8.373650833395e-03       1.967156286757e+04 
       8.504856965347e-03       1.981363450276e+04 
       8.636129579735e-03       1.995213117468e+04 
       8.767466417040e-03       2.008713326577e+04 
       8.898865362260e-03       2.021868161575e+04 
       9.030324435316e-03       2.034678866753e+04 
       9.161841782235e-03       2.047153711054e+04 
       9.293415667046e-03       2.059295902954e+04 
       9.425044464327e-03       2.071106564030e+04 
       9.556726652331e-03       2.082593966127e+04 
       9.688460806661e-03       2.093760500021e+04 
       9.820245594426e-03       2.104609364651e+04 
       9.952079768852e-03       2.115147098087e+04 
       1.008396216430e-02       2.125377270158e+04 
       1.021589169167e-02       2.135300289140e+04 
       1.034786733411e-02       2.144924977160e+04 
       1.047988814312e-02       2.154252277302e+04 
       1.061195323486e-02       2.163285446087e+04 
       1.074406178678e-02       2.172031140916e+04 
       1.087621303448e-02       2.180490610421e+04 
       1.100840626880e-02       2.188669168317e+04 
       1.114064083312e-02       2.196569696703e+04 
       1.127291612082e-02       2.204195430591e+04 
       1.140523157299e-02       2.211550902630e+04 
       1.153758667625e-02       2.218640858858e+04 
       1.166998096074e-02       2.225466123681e+04 
       1.180241399822e-02       2.232029557846e+04 
       1.193488540039e-02       2.238338982445e+04 
       1.206739481721e-02       2.244394166637e+04 
       1.219994193545e-02       2.250200419749e+04 
       1.233252647726e-02       2.255761214063e+04 
       1.246514819890e-02       2.261077838739e+04 
       1.259780688949e-02       2.266156349757e+04 
       1.273050236996e-02       2.270999937754e+04 
       1.286323449192e-02       2.275607569303e+04 
       1.299600313679e-02       2.279988394139e+04 
       1.312880821483e-02       2.284141879476e+04 
       1.326164966438e-02       2.288071392897e+04 
       1.339452745101e-02       2.291781970502e+04 
       1.352744156690e-02       2.295274487793e+04 
       1.366039203014e-02       2.298554722645e+04 
       1.379337888411e-02       2.301621900723e+04 
       1.392640219699e-02       2.304482110030e+04 
       1.405946206119e-02       2.307136291121e+04 
       1.419255859293e-02       2.309588476292e+04 
       1.432569193178e-02       2.311842857352e+04 
       1.445886224031e-02       2.313899322532e+04 
       1.459206970373e-02       2.315761770629e+04 
       1.472531452957e-02       2.317434954127e+04 
       1.485859694742e-02       2.318918541096e+04 
       1.499191720867e-02       2.320217557755e+04 
       1.512527558628e-02       2.321333037840e+04 
       1.525867237463e-02       2.322267639963e+04 
       1.539210788935e-02       2.323024942999e+04 
       1.552558246714e-02       2.323606946988e+04 
       1.565909646575e-02       2.324019442873e+04 
       1.579265026380e-02       2.324260012166e+04 
       1.592624426081e-02       2.324332907836e+04 
       1.605987887710e-02       2.324241949481e+04 
       1.619355455382e-02       2.323988951354e+04 
       1.632727175292e-02       2.323574954369e+04 
       1.646103095722e-02       2.323003721229e+04 
       1.659483267042e-02       2.322276762181e+04 
       1.672867741719e-02       2.321397286773e+04 
       1.686256574328e-02       2.320369034377e+04 
       1.699649821556e-02       2.319190294050e+04 
       1.713047542222e-02       2.317868233076e+04 
       1.726449797287e-02       2.316400595383e+04 
       1.739856649873e-02       2.314791506433e+04 
       1.753268165278e-02       2.313044775898e+04 
       1.766684410997e-02       2.311159971685e+04 
       1.780105456744e-02       2.309141725671e+04 
       1.793531374476e-02       2.306990972047e+04 
       1.806962238415e-02       2.304710155524e+04 
       1.820398125075e-02       2.302298985663e+04 
       1.833839113295e-02       2.299764242119e+04 
       1.847285284262e-02       2.297103913548e+04 
       1.860736721547e-02       2.294323285875e+04 
       1.874193511136e-02       2.291421402307e+04 
       1.887655741468e-02       2.288402319306e+04 
       1.901123503467e-02       2.285265629806e+04 
       1.914596890585e-02       2.282017860189e+04 
       1.928075998839e-02       2.278654055518e+04 
       1.941560926853e-02       2.275184255024e+04 
       1.955051775903e-02       2.271606301908e+04 
       1.968548649962e-02       2.267919468468e+04 
       1.982051655746e-02       2.264131358532e+04 
       1.995560902763e-02       2.260237806087e+04 
       2.009076503365e-02       2.256245157460e+04 
       2.022598572800e-02       2.252154191014e+04 
       2.036127229264e-02       2.247965860653e+04 
       2.049662593962e-02       2.243685108228e+04 
       2.063204791165e-02       2.239306747336e+04 
       2.076753948266e-02       2.234840563293e+04 
       2.090310195850e-02       2.230284410060e+04 
       2.103873667752e-02       2.225642351008e+04 
       2.117444501128e-02       2.220908931547e+04 
       2.131022836520e-02       2.216095900656e+04 
       2.144608817932e-02       2.211197416427e+04 
       2.158202592900e-02       2.206218334359e+04 
       2.171804312567e-02       2.201163689903e+04 
       2.185414131766e-02       2.196029423429e+04 
       2.199032209095e-02       2.190821487970e+04 
       2.212658707004e-02       2.185532357924e+04 
       2.226293791881e-02       2.180176433681e+04 
       2.239937634137e-02       2.174748810980e+04 
       2.253590408301e-02       2.169253340726e+04 
       2.267252293115e-02       2.163686714506e+04 
       2.280923471625e-02       2.158056602326e+04 
       2.294604131289e-02       2.152359275520e+04 
       2.308294464075e-02       2.146602570911e+04 
       2.321994666569e-02       2.140775997912e+04 
       2.335704940086e-02       2.134896868915e+04 
       2.349425490782e-02       2.128955567667e+04 
       2.363156529771e-02       2.122963127174e+04 
       2.376898273244e-02       2.116901353041e+04 
       2.390650942597e-02       2.110795857545e+04 
       2.404414764555e-02       2.104636853886e+04 
       2.418189971307e-02       2.098420569998e+04 
       2.431976800641e-02       2.092156184729e+04 
       2.445775496084e-02       2.085845749988e+04 
       2.459586307049e-02       2.079486793970e+04 
       2.473409488982e-02       2.073081615853e+04 
       2.487245303518e-02       2.066627805762e+04 
       2.501094018641e-02       2.060132452970e+04 
       2.514955908848e-02       2.053592604563e+04 
       2.528831255318e-02       2.047015951761e+04 
       2.542720346086e-02       2.040395856822e+04 
       2.556623476230e-02       2.033738738162e+04 
       2.570540948049e-02       2.027044311347e+04 
       2.584473071265e-02       2.020307244462e+04 
       2.598420163214e-02       2.013545338094e+04 
       2.612382549061e-02       2.006739993701e+04 
       2.626360562006e-02       1.999902928289e+04 
       2.640354543506e-02       1.993036257163e+04 
       2.654364843505e-02       1.986138121619e+04 
       2.668391820665e-02       1.979211599853e+04 
       2.682435842615e-02       1.972259629831e+04 
       2.696497286196e-02       1.965270345001e+04 
       2.710576537727e-02       1.958261451976e+04 
       2.724673993273e-02       1.951225273468e+04 
       2.738790058920e-02       1.944164127261e+04 
       2.752925151071e-02       1.937083609786e+04 
       2.767079696739e-02       1.929977871998e+04 
       2.781254133858e-02       1.922848305868e+04 
       2.795448911605e-02       1.915702866241e+04 
       2.809664490731e-02       1.908538472591e+04 
       2.823901343909e-02       1.901348318618e+04 
       2.838159956084e-02       1.894148227266e+04 
       2.852440824851e-02       1.886924819278e+04 
       2.866744460834e-02       1.879693037181e+04 
       2.881071388086e-02       1.872440906357e+04 
       2.895422144504e-02       1.865176271045e+04 
       2.909797282255e-02       1.857901812494e+04 
       2.924197368225e-02       1.850608378410e+04 
       2.938622984479e-02       1.843305688983e+04 
       2.953074728744e-02       1.835994842916e+04 
       2.967553214908e-02       1.828665125288e+04 
       2.982059073538e-02       1.821335877555e+04 
       2.996592952425e-02       1.814004394892e+04 
       3.011155517137e-02       1.806651790329e+04 
       3.025747451613e-02       1.799293364027e+04 
       3.040369458765e-02       1.791927490007e+04 
       3.055022261113e-02       1.784551300471e+04 
       3.069706601448e-02       1.777191059133e+04 
       3.084423243512e-02       1.769813701293e+04 
       3.099172972721e-02       1.762435894090e+04 
       3.113956596908e-02       1.755051112009e+04 
       3.128774947102e-02       1.747662070168e+04 
       3.143628878340e-02       1.740280519145e+04 
       3.158519270517e-02       1.732884749280e+04 
       3.173447029268e-02       1.725498434292e+04 
       3.188413086891e-02       1.718110133371e+04 
       3.203418403318e-02       1.710720840184e+04 
       3.218463967119e-02       1.703333040739e+04 
       3.233550796559e-02       1.695947833718e+04 
       3.248679940703e-02       1.688570650044e+04 
       3.263852480568e-02       1.681187996055e+04 
       3.279069530335e-02       1.673811033240e+04 
       3.294332238613e-02       1.666435523690e+04 
       3.309641789769e-02       1.659059453221e+04 
       3.324999405316e-02       1.651701244362e+04 
       3.340406345371e-02       1.644332563896e+04 
       3.355863910188e-02       1.636981286879e+04 
       3.371373441763e-02       1.629635267471e+04 
       3.386936325519e-02       1.622292572181e+04 
       3.402553992082e-02       1.614959180319e+04 
       3.418227919142e-02       1.607620868775e+04 
       3.433959633408e-02       1.600300208742e+04 
       3.449750712678e-02       1.592984066143e+04 
       3.465602788003e-02       1.585677933862e+04 
       3.481517545975e-02       1.578377467588e+04 
       3.497496731136e-02       1.571088557864e+04 
       3.513542148518e-02       1.563803910759e+04 
       3.529655666325e-02       1.556528365715e+04 
       3.545839218762e-02       1.549260923596e+04 
       3.562094809022e-02       1.542011704102e+04 
       3.578424512446e-02       1.534766065598e+04 
       3.594830479868e-02       1.527526799278e+04 
       3.611314941141e-02       1.520301937848e+04 
       3.627880208889e-02       1.513087583226e+04 
       3.644528682470e-02       1.505879186626e+04 
       3.661262852180e-02       1.498686591581e+04 
       3.678085303718e-02       1.491495453716e+04 
       3.694998722920e-02       1.484326095858e+04 
       3.712005900796e-02       1.477161457694e+04 
       3.729109738878e-02       1.470008518066e+04 
       3.746313254915e-02       1.462865863143e+04 
       3.763619588936e-02       1.455735093629e+04 
       3.781032009716e-02       1.448614570204e+04 
       3.798553921658e-02       1.441501760746e+04 
       3.816188872155e-02       1.434406718406e+04 
       3.833940559447e-02       1.427319681477e+04 
       3.851812841018e-02       1.420243067419e+04 
       3.869809742586e-02       1.413171991223e+04 
       3.887935467737e-02       1.406116391850e+04 
       3.906194408239e-02       1.399068644111e+04 
       3.924591155121e-02       1.392037067012e+04 
       3.943130510572e-02       1.385007357967e+04 
       3.961817500727e-02       1.377994686700e+04 
       3.980657389437e-02       1.370986343908e+04 
       3.999655693094e-02       1.363994428908e+04 
       4.018818196634e-02       1.357006890834e+04 
       4.038150970803e-02       1.350028792327e+04 
       4.057660390825e-02       1.343061654379e+04 
       4.077353156610e-02       1.336099780708e+04 
       4.097236314643e-02       1.329151069092e+04 
       4.117317281734e-02       1.322206509851e+04 
       4.137603870815e-02       1.315268999900e+04 
       4.158104319000e-02       1.308343092336e+04 
       4.178827318145e-02       1.301423857899e+04 
       4.199782048184e-02       1.294503531662e+04 
       4.220978213530e-02       1.287597367015e+04 
       4.242426082903e-02       1.280695651144e+04 
       4.264136532960e-02       1.273797967532e+04 
       4.286121096164e-02       1.266907998711e+04 
       4.308392013409e-02       1.260019959711e+04 
       4.330962291940e-02       1.253132680248e+04 
       4.353845769248e-02       1.246254241560e+04 
       4.377057183653e-02       1.239382681048e+04 
       4.400612252441e-02       1.232512904146e+04 
       4.424527758526e-02       1.225651963256e+04 
       4.448821646757e-02       1.218798213627e+04 
       4.473513131166e-02       1.211957109474e+04 
       4.498622814673e-02       1.205140170816e+04 
       4.524172822969e-02       1.198380267035e+04 
       4.550186954631e-02       1.191813855894e+04 
       4.576690849826e-02       1.186101770800e+04 
       4.603712180394e-02       1.183322094039e+04 
       4.631280864565e-02       1.187681115164e+04 
       4.659429310182e-02       1.203843962088e+04 
       4.688192690971e-02       1.231373023327e+04 
       4.717609261286e-02       1.259246723743e+04 
       4.747720715771e-02       1.268770545860e+04 
       4.778572601671e-02       1.248182081532e+04 
       4.810214793053e-02       1.205938271751e+04 
       4.842702038123e-02       1.162849504571e+04 
       4.876094593163e-02       1.132769495349e+04 
       4.910458959545e-02       1.115533928621e+04 
       4.945868743906e-02       1.104821849928e+04 
       4.982405666103e-02       1.096185643712e+04 
       5.020160745283e-02       1.088121072389e+04 
       5.059235701564e-02       1.080247498042e+04 
       5.099744619930e-02       1.072443741040e+04 
       5.141815934444e-02       1.064638156015e+04 
       5.185594805551e-02       1.056811892402e+04 
       5.231245981930e-02       1.048930411927e+04 
       5.278957262153e-02       1.040974500360e+04 
       5.328943701721e-02       1.032932146408e+04 
       5.381452749462e-02       1.024780208251e+04 
       5.436770545502e-02       1.016499908649e+04 
       5.495229672578e-02       1.008072250246e+04 
       5.557218723944e-02       9.994737587847e+03 
       5.623194132327e-02       9.906668082616e+03 
       5.693694787082e-02       9.816227782937e+03 
       5.769360029434e-02       9.722923995248e+03 
       5.850951610201e-02       9.626177801842e+03 
       5.939380020317e-02       9.525277541356e+03 
       6.035735063531e-02       9.419190573723e+03 
       6.141319262294e-02       9.306701730780e+03 
       6.257680026908e-02       9.186049630365e+03 
       6.386631478611e-02       9.054969707522e+03 
       6.530248221522e-02       8.910388867131e+03 
