# Matter power spectrum P(k) at redshift z=0
# for k=1.05086e-05 to 1.61839 h/Mpc,
# number of wavenumbers equal to 599
#    1:k (h/Mpc)              2:P (Mpc/h)^3        
       1.050861780603e-05       4.733938377859e+01 
       2.379155153030e-05       1.042429694925e+02 
       3.712339274979e-05       1.602149168767e+02 
       5.054228900412e-05       2.158480259542e+02 
       6.408705131807e-05       2.714850540953e+02 
       7.779752211459e-05       3.273876325707e+02 
       9.171495550260e-05       3.837821505392e+02 
       1.058824152951e-04       4.408802009088e+02 
       1.203451961515e-04       4.988875941353e+02 
       1.351512732735e-04       5.580112712482e+02 
       1.503517860753e-04       6.184631055692e+02 
       1.660015611415e-04       6.804635488728e+02 
       1.821596795072e-04       7.442447865799e+02 
       1.988900927300e-04       8.100538384718e+02 
       2.162622912408e-04       8.781546426870e+02 
       2.343520268636e-04       9.488313410701e+02 
       2.532420889318e-04       1.022390855514e+03 
       2.730231297894e-04       1.099166292857e+03 
       2.937945302398e-04       1.179519106857e+03 
       3.156652882336e-04       1.263840981371e+03 
       3.387549042292e-04       1.352559118561e+03 
       3.631942236878e-04       1.446135079290e+03 
       3.891261806407e-04       1.545068499314e+03 
       4.167063660180e-04       1.649896734648e+03 
       4.461033208580e-04       1.761195323008e+03 
       4.774984289434e-04       1.879573793001e+03 
       5.110852586527e-04       2.005672660214e+03 
       5.470681846284e-04       2.140153861484e+03 
       5.856601134355e-04       2.283692040583e+03 
       6.270791531045e-04       2.436957603124e+03 
       6.715441149795e-04       2.600596776619e+03 
       7.192688269133e-04       2.775208282828e+03 
       7.704553733949e-04       2.961320282513e+03 
       8.252865536863e-04       3.159357209118e+03 
       8.839180411440e-04       3.369612570403e+03 
       9.464708969760e-04       3.592221626453e+03 
       1.013025190832e-03       3.827146403391e+03 
       1.083615463564e-03       4.074161282738e+03 
       1.158228611146e-03       4.332845975339e+03 
       1.236804487422e-03       4.602603871333e+03 
       1.319239171106e-03       4.882677298386e+03 
       1.405390498521e-03       5.172178609144e+03 
       1.495085205484e-03       5.470125044193e+03 
       1.588126898717e-03       5.775459517948e+03 
       1.684304096883e-03       6.087117077270e+03 
       1.783397713543e-03       6.404010789902e+03 
       1.885187548473e-03       6.725096195115e+03 
       1.989457558258e-03       7.049377713692e+03 
       2.095999853791e-03       7.375916327224e+03 
       2.204617501597e-03       7.703836054239e+03 
       2.315126284390e-03       8.032347416700e+03 
       2.427355611152e-03       8.360736733359e+03 
       2.541148770106e-03       8.688365688199e+03 
       2.656362701226e-03       9.014651788009e+03 
       2.772867438324e-03       9.339097335753e+03 
       2.890545341185e-03       9.661275750036e+03 
       3.009290210099e-03       9.980781106244e+03 
       3.129006350558e-03       1.029728993330e+04 
       3.249607635790e-03       1.061050774492e+04 
       3.371016598959e-03       1.092020438214e+04 
       3.493163575003e-03       1.122614533364e+04 
       3.615985903342e-03       1.152815845770e+04 
       3.739427196576e-03       1.182610429277e+04 
       3.863436676098e-03       1.211985552963e+04 
       3.987968572829e-03       1.240929170315e+04 
       4.112981589576e-03       1.269435429533e+04 
       4.238438420620e-03       1.297495693019e+04 
       4.364305323669e-03       1.325105411052e+04 
       4.490551739268e-03       1.352261358523e+04 
       4.617149952860e-03       1.378960495559e+04 
       4.744074794968e-03       1.405200591972e+04 
       4.871303375296e-03       1.430981725319e+04 
       4.998814846928e-03       1.456303176611e+04 
       5.126590197154e-03       1.481164868079e+04 
       5.254612061828e-03       1.505570093171e+04 
       5.382864560502e-03       1.529518831923e+04 
       5.511333149884e-03       1.553014065009e+04 
       5.640004493456e-03       1.576057572823e+04 
       5.768866345363e-03       1.598652468420e+04 
       5.897907446870e-03       1.620802569558e+04 
       6.027117433939e-03       1.642509514655e+04 
       6.156486754619e-03       1.663777916900e+04 
       6.286006595112e-03       1.684611893719e+04 
       6.415668813528e-03       1.705015104903e+04 
       6.545465880440e-03       1.724991147355e+04 
       6.675390825478e-03       1.744545097607e+04 
       6.805437189288e-03       1.763680705840e+04 
       6.935598980252e-03       1.782402085977e+04 
       7.065870635451e-03       1.800713204324e+04 
       7.196246985412e-03       1.818618494795e+04 
       7.326723222227e-03       1.836126744124e+04 
       7.457294870688e-03       1.853235894545e+04 
       7.587957762115e-03       1.869954507365e+04 
       7.718708010602e-03       1.886285743449e+04 
       7.849541991438e-03       1.902234147838e+04 
       7.980456321458e-03       1.917806111236e+04 
       8.111447841157e-03       1.933004132618e+04 
       8.242513598373e-03       1.947832498395e+04 
       8.373650833395e-03       1.962298311355e+04 
       8.504856965347e-03       1.976405182820e+04 
       8.636129579735e-03       1.990154740699e+04 
       8.767466417040e-03       2.003555031475e+04 
       8.898865362260e-03       2.016610154946e+04 
       9.030324435316e-03       2.029321376975e+04 
       9.161841782235e-03       2.041696968553e+04 
       9.293415667046e-03       2.053740152497e+04 
       9.425044464327e-03       2.065452070801e+04 
       9.556726652331e-03       2.076840996935e+04 
       9.688460806661e-03       2.087909340844e+04 
       9.820245594426e-03       2.098660320497e+04 
       9.952079768852e-03       2.109100486485e+04 
       1.008396216430e-02       2.119233432667e+04 
       1.021589169167e-02       2.129059604082e+04 
       1.034786733411e-02       2.138587839180e+04 
       1.047988814312e-02       2.147819123976e+04 
       1.061195323486e-02       2.156756755145e+04 
       1.074406178678e-02       2.165407423256e+04 
       1.087621303448e-02       2.173772429439e+04 
       1.100840626880e-02       2.181857130020e+04 
       1.114064083312e-02       2.189664458943e+04 
       1.127291612082e-02       2.197197703031e+04 
       1.140523157299e-02       2.204461442895e+04 
       1.153758667625e-02       2.211460471053e+04 
       1.166998096074e-02       2.218195669779e+04 
       1.180241399822e-02       2.224669949102e+04 
       1.193488540039e-02       2.230891160044e+04 
       1.206739481721e-02       2.236859124811e+04 
       1.219994193545e-02       2.242579183385e+04 
       1.233252647726e-02       2.248054840255e+04 
       1.246514819890e-02       2.253287419634e+04 
       1.259780688949e-02       2.258282991280e+04 
       1.273050236996e-02       2.263044764381e+04 
       1.286323449192e-02       2.267571734012e+04 
       1.299600313679e-02       2.271873037890e+04 
       1.312880821483e-02       2.275948160719e+04 
       1.326164966438e-02       2.279800469778e+04 
       1.339452745101e-02       2.283434990816e+04 
       1.352744156690e-02       2.286852600809e+04 
       1.366039203014e-02       2.290059058399e+04 
       1.379337888411e-02       2.293053591645e+04 
       1.392640219699e-02       2.295842263734e+04 
       1.405946206119e-02       2.298426007921e+04 
       1.419255859293e-02       2.300808836646e+04 
       1.432569193178e-02       2.302994920421e+04 
       1.445886224031e-02       2.304984142193e+04 
       1.459206970373e-02       2.306780380114e+04 
       1.472531452957e-02       2.308388362710e+04 
       1.485859694742e-02       2.309807754110e+04 
       1.499191720867e-02       2.311043556092e+04 
       1.512527558628e-02       2.312096794021e+04 
       1.525867237463e-02       2.312970112321e+04 
       1.539210788935e-02       2.313667072392e+04 
       1.552558246714e-02       2.314189663556e+04 
       1.565909646575e-02       2.314543651020e+04 
       1.579265026380e-02       2.314726624258e+04 
       1.592624426081e-02       2.314742817475e+04 
       1.605987887710e-02       2.314596033420e+04 
       1.619355455382e-02       2.314288077969e+04 
       1.632727175292e-02       2.313819987217e+04 
       1.646103095722e-02       2.313195507926e+04 
       1.659483267042e-02       2.312416144215e+04 
       1.672867741719e-02       2.311485092688e+04 
       1.686256574328e-02       2.310406078019e+04 
       1.699649821556e-02       2.309177398605e+04 
       1.713047542222e-02       2.307806193653e+04 
       1.726449797287e-02       2.306290220647e+04 
       1.739856649873e-02       2.304633592154e+04 
       1.753268165278e-02       2.302840107463e+04 
       1.766684410997e-02       2.300909344228e+04 
       1.780105456744e-02       2.298845923379e+04 
       1.793531374476e-02       2.296650786254e+04 
       1.806962238415e-02       2.294326379822e+04 
       1.820398125075e-02       2.291872430141e+04 
       1.833839113295e-02       2.289295703380e+04 
       1.847285284262e-02       2.286594216366e+04 
       1.860736721547e-02       2.283773251890e+04 
       1.874193511136e-02       2.280831880318e+04 
       1.887655741468e-02       2.277774163888e+04 
       1.901123503467e-02       2.274599723338e+04 
       1.914596890585e-02       2.271315081684e+04 
       1.928075998839e-02       2.267915335188e+04 
       1.941560926853e-02       2.264410504414e+04 
       1.955051775903e-02       2.260798471507e+04 
       1.968548649962e-02       2.257078541034e+04 
       1.982051655746e-02       2.253258308833e+04 
       1.995560902763e-02       2.249333656292e+04 
       2.009076503365e-02       2.245310925477e+04 
       2.022598572800e-02       2.241190915579e+04 
       2.036127229264e-02       2.236974598629e+04 
       2.049662593962e-02       2.232666912930e+04 
       2.063204791165e-02       2.228262715665e+04 
       2.076753948266e-02       2.223771759486e+04 
       2.090310195850e-02       2.219191921436e+04 
       2.103873667752e-02       2.214527254306e+04 
       2.117444501128e-02       2.209772337340e+04 
       2.131022836520e-02       2.204938864233e+04 
       2.144608817932e-02       2.200021022764e+04 
       2.158202592900e-02       2.195023641437e+04 
       2.171804312567e-02       2.189951724721e+04 
       2.185414131766e-02       2.184801225572e+04 
       2.199032209095e-02       2.179578056229e+04 
       2.212658707004e-02       2.174274717178e+04 
       2.226293791881e-02       2.168905520340e+04 
       2.239937634137e-02       2.163465570582e+04 
       2.253590408301e-02       2.157958681586e+04 
       2.267252293115e-02       2.152381544015e+04 
       2.280923471625e-02       2.146741769152e+04 
       2.294604131289e-02       2.141035628898e+04 
       2.308294464075e-02       2.135270900017e+04 
       2.321994666569e-02       2.129437128900e+04 
       2.335704940086e-02       2.123551518689e+04 
       2.349425490782e-02       2.117604487253e+04 
       2.363156529771e-02       2.111606993216e+04 
       2.376898273244e-02       2.105540925316e+04 
       2.390650942597e-02       2.099431746005e+04 
       2.404414764555e-02       2.093269709819e+04 
       2.418189971307e-02       2.087051055916e+04 
       2.431976800641e-02       2.080784906122e+04 
       2.445775496084e-02       2.074473295414e+04 
       2.459586307049e-02       2.068113761527e+04 
       2.473409488982e-02       2.061708589006e+04 
       2.487245303518e-02       2.055255380815e+04 
       2.501094018641e-02       2.048761188427e+04 
       2.514955908848e-02       2.042223077739e+04 
       2.528831255318e-02       2.035648701177e+04 
       2.542720346086e-02       2.029031462677e+04 
       2.556623476230e-02       2.022377750839e+04 
       2.570540948049e-02       2.015687289365e+04 
       2.584473071265e-02       2.008954783509e+04 
       2.598420163214e-02       2.002197941408e+04 
       2.612382549061e-02       1.995398276908e+04 
       2.626360562006e-02       1.988567448882e+04 
       2.640354543506e-02       1.981707568184e+04 
       2.654364843505e-02       1.974816793928e+04 
       2.668391820665e-02       1.967898193617e+04 
       2.682435842615e-02       1.960954694561e+04 
       2.696497286196e-02       1.953974503763e+04 
       2.710576537727e-02       1.946975230910e+04 
       2.724673993273e-02       1.939949246472e+04 
       2.738790058920e-02       1.932898857612e+04 
       2.752925151071e-02       1.925829629930e+04 
       2.767079696739e-02       1.918735748828e+04 
       2.781254133858e-02       1.911618597713e+04 
       2.795448911605e-02       1.904486083285e+04 
       2.809664490731e-02       1.897335140114e+04 
       2.823901343909e-02       1.890158998063e+04 
       2.838159956084e-02       1.882973382208e+04 
       2.852440824851e-02       1.875764986281e+04 
       2.866744460834e-02       1.868548657851e+04 
       2.881071388086e-02       1.861312485772e+04 
       2.895422144504e-02       1.854064259762e+04 
       2.909797282255e-02       1.846806636462e+04 
       2.924197368225e-02       1.839530509338e+04 
       2.938622984479e-02       1.832245531420e+04 
       2.953074728744e-02       1.824952785541e+04 
       2.967553214908e-02       1.817641612159e+04 
       2.982059073538e-02       1.810331227375e+04 
       2.996592952425e-02       1.803018933851e+04 
       3.011155517137e-02       1.795685951008e+04 
       3.025747451613e-02       1.788347479108e+04 
       3.040369458765e-02       1.781001895403e+04 
       3.055022261113e-02       1.773646343863e+04 
       3.069706601448e-02       1.766306922624e+04 
       3.084423243512e-02       1.758950765127e+04 
       3.099172972721e-02       1.751594433508e+04 
       3.113956596908e-02       1.744231440314e+04 
       3.128774947102e-02       1.736864482965e+04 
       3.143628878340e-02       1.729505239130e+04 
       3.158519270517e-02       1.722132134083e+04 
       3.173447029268e-02       1.714768696129e+04 
       3.188413086891e-02       1.707403557235e+04 
       3.203418403318e-02       1.700037707223e+04 
       3.218463967119e-02       1.692673619167e+04 
       3.233550796559e-02       1.685312387506e+04 
       3.248679940703e-02       1.677959411599e+04 
       3.263852480568e-02       1.670601284878e+04 
       3.279069530335e-02       1.663249100679e+04 
       3.294332238613e-02       1.655898649184e+04 
       3.309641789769e-02       1.648547929797e+04 
       3.324999405316e-02       1.641215248184e+04 
       3.340406345371e-02       1.633872449920e+04 
       3.355863910188e-02       1.626547231081e+04 
       3.371373441763e-02       1.619227520102e+04 
       3.386936325519e-02       1.611911392078e+04 
       3.402553992082e-02       1.604604783395e+04 
       3.418227919142e-02       1.597293556648e+04 
       3.433959633408e-02       1.590000131953e+04 
       3.449750712678e-02       1.582711452695e+04 
       3.465602788003e-02       1.575432969108e+04 
       3.481517545975e-02       1.568160357429e+04 
       3.497496731136e-02       1.560899462493e+04 
       3.513542148518e-02       1.553643030192e+04 
       3.529655666325e-02       1.546395861532e+04 
       3.545839218762e-02       1.539156957224e+04 
       3.562094809022e-02       1.531936364915e+04 
       3.578424512446e-02       1.524719533258e+04 
       3.594830479868e-02       1.517509231040e+04 
       3.611314941141e-02       1.510313434918e+04 
       3.627880208889e-02       1.503128269863e+04 
       3.644528682470e-02       1.495949215573e+04 
       3.661262852180e-02       1.488786050080e+04 
       3.678085303718e-02       1.481624523851e+04 
       3.694998722920e-02       1.474484826064e+04 
       3.712005900796e-02       1.467350010479e+04 
       3.729109738878e-02       1.460227011162e+04 
       3.746313254915e-02       1.453114425145e+04 
       3.763619588936e-02       1.446013843833e+04 
       3.781032009716e-02       1.438923639650e+04 
       3.798553921658e-02       1.431841297894e+04 
       3.816188872155e-02       1.424776803889e+04 
       3.833940559447e-02       1.417720460027e+04 
       3.851812841018e-02       1.410674665379e+04 
       3.869809742586e-02       1.403634564569e+04 
       3.887935467737e-02       1.396610025294e+04 
       3.906194408239e-02       1.389593468638e+04 
       3.924591155121e-02       1.382593151259e+04 
       3.943130510572e-02       1.375594860943e+04 
       3.961817500727e-02       1.368613657375e+04 
       3.980657389437e-02       1.361636910453e+04 
       3.999655693094e-02       1.354676629917e+04 
       4.018818196634e-02       1.347720840296e+04 
       4.038150970803e-02       1.340774563445e+04 
       4.057660390825e-02       1.333839304515e+04 
       4.077353156610e-02       1.326909401791e+04 
       4.097236314643e-02       1.319992695396e+04 
       4.117317281734e-02       1.313080235307e+04 
       4.137603870815e-02       1.306174897059e+04 
       4.158104319000e-02       1.299281201803e+04 
       4.178827318145e-02       1.292394254501e+04 
       4.199782048184e-02       1.285506344753e+04 
       4.220978213530e-02       1.278632620569e+04 
       4.242426082903e-02       1.271763436923e+04 
       4.264136532960e-02       1.264898379824e+04 
       4.286121096164e-02       1.258041104701e+04 
       4.308392013409e-02       1.251185864395e+04 
       4.330962291940e-02       1.244331492818e+04 
       4.353845769248e-02       1.237486008804e+04 
       4.377057183653e-02       1.230647456230e+04 
       4.400612252441e-02       1.223810767983e+04 
       4.424527758526e-02       1.216982937127e+04 
       4.448821646757e-02       1.210162320432e+04 
       4.473513131166e-02       1.203354322892e+04 
       4.498622814673e-02       1.196570372635e+04 
       4.524172822969e-02       1.189843097914e+04 
       4.550186954631e-02       1.183307937149e+04 
       4.576690849826e-02       1.177620624243e+04 
       4.603712180394e-02       1.174842911902e+04 
       4.631280864565e-02       1.179147684317e+04 
       4.659429310182e-02       1.195162560571e+04 
       4.688192690971e-02       1.222452566486e+04 
       4.717609261286e-02       1.250083393270e+04 
       4.747720715771e-02       1.259510079294e+04 
       4.778572601671e-02       1.239064768352e+04 
       4.810214793053e-02       1.197136495881e+04 
       4.842702038123e-02       1.154368845648e+04 
       4.876094593163e-02       1.124505338462e+04 
       4.910458959545e-02       1.107383863270e+04 
       4.945868743906e-02       1.096734359133e+04 
       4.982405666103e-02       1.088144572500e+04 
       5.020160745283e-02       1.080121995188e+04 
       5.059235701564e-02       1.072288857192e+04 
       5.099744619930e-02       1.064524875574e+04 
       5.141815934444e-02       1.056758929665e+04 
       5.185594805551e-02       1.048972297716e+04 
       5.231245981930e-02       1.041130677259e+04 
       5.278957262153e-02       1.033214963426e+04 
       5.328943701721e-02       1.025213188109e+04 
       5.381452749462e-02       1.017102327623e+04 
       5.436770545502e-02       1.008863692125e+04 
       5.495229672578e-02       1.000478385416e+04 
       5.557218723944e-02       9.919230837121e+03 
       5.623194132327e-02       9.831604230710e+03 
       5.693694787082e-02       9.741619569276e+03 
       5.769360029434e-02       9.648787027423e+03 
       5.850951610201e-02       9.552530895767e+03 
       5.939380020317e-02       9.452143986314e+03 
       6.035735063531e-02       9.346601357034e+03 
       6.141319262294e-02       9.234697170308e+03 
       6.257680026908e-02       9.114682600428e+03 
       6.386631478611e-02       8.984309487813e+03 
       6.530248221522e-02       8.840530192010e+03 
